; C:\cristallo\dat2rit\Release\sample8.raw(Diffrac Plus V1.01 file) converted by XCH V1.0
_FILEVERSION=2
_SAMPLE='Rb7Cr6F25  0.7 0.7 0.2 aw'
_+SAMPLE='This configuration file has been created by the Bruker AXS ConfigProgram imitating the old SAG-free format style for compatibility to'
_SITE='AXS GERMANY'
_GONIOMETER_CODE=1
; D5000 Theta/2Theta; Reflection Rotation
_SAMPLE_CHANGER_CODE=0
_ATTACHMENTS_CODE=0
_GONIOMETER_RADIUS=200.500000
_FIXED_DIVSLIT=0.000000
_FIXED_SAMPLESLIT=0.000000
_SOLLER_SLITS='Y'
_FIXED_DETSLIT=0.200000
_MONOCHROMATOR=0
; None
_SOLLER_SLITS_2='Y'
_THIN_FILM='N'
_BETA_FILTER='N'
_FIXED_ANTISLIT=1.000000
_ANALYZER_CODE=0
; None
_RUNTIME=252191.000000
_WL1=1.540600
_WL2=1.544390
_WL3=1.392220
_WLRATIO=0.500000
_ANODE='Cu'
; (Data for Range number 1)
_DRIVE='COUPLED'
_STEPTIME=41.000000
_STEPSIZE=0.020000
_STEPMODE='S'
_START=7.000000
_THETA=3.500000
_2THETA=7.000000
_PHI=0.000000
_DIVERGENCE=0.700000
_ANTISCATTER=0.700000
_DETECTOR=0
; None
_HV=912.389404
_GAIN=100.000000
_LLD=0.616280
_ULD=1.552910
_DETECTORSLIT='out'
_AUX1=0.000000
_AUX2=0.000000
_AUX3=0.000000
_TIMESTARTED=0.535000
_TEMP_RATE=0.000000
_TEMP_DELAY=0.000000
_KV=40
_MA=50
_RANGE_WL=1.540600
_3DPLANE=1
_COUNTS
      457       422       455       423       486       426       467       442
      405       438       438       458       478       456       445       451
      443       427       437       430       440       420       458       427
      439       412       412       442       424       424       395       423
      415       429       404       425       440       411       429       421
      443       420       437       407       405       346       422       416
      385       377       404       381       418       407       431       413
      380       394       383       390       394       416       408       418
      378       400       386       396       424       369       396       380
      370       389       371       352       385       370       343       389
      329       346       364       344       376       393       358       374
      370       365       366       347       389       334       354       378
      374       390       370       375       372       356       358       372
      357       327       355       324       358       369       358       396
      342       360       372       373       351       390       370       399
      395       412       453       482       488       561       633       637
      685       585       468       366       361       352       364       342
      367       349       320       337       347       328       333       348
      346       310       332       349       337       329       322       331
      310       346       335       301       323       314       319       339
      314       315       311       326       324       308       298       292
      297       342       358       326       320       319       306       301
      312       353       330       289       333       288       290       309
      310       336       290       316       294       307       328       298
      326       324       323       361       354       392       382       317
      337       363       325       344       369       363       386       449
      444       555       619       734       900      1029      1292      1569
     1791      2069      2037      1921      1451       842       568       456
      394       353       380       338       299       335       306       329
      270       312       317       294       283       290       314       295
      334       318       291       285       274       262       307       317
      317       317       320       310       305       369       361       376
      422       462       577       615       721       960      1197      1354
     1681      1968      2239      2477      2499      2178      1585       882
      556       430       361       347       345       321       319       312
      253       315       254       277       287       296       253       269
      277       260       298       272       293       268       257       294
      274       266       272       263       269       257       279       267
      254       310       283       327       349       360       438       491
      505       561       645       521       470       389       338       274
      290       257       235       261       263       268       261       250
      262       249       242       229       280       263       258       257
      279       236       265       267       273       296       271       282
      300       298       279       251       258       264       244       226
      259       229       263       236       258       243       250       256
      268       231       250       253       255       259       298       249
      258       295       259       256       263       247       262       249
      246       243       254       258       255       252       277       274
      241       275       280       280       260       276       256       286
      281       274       260       233       279       248       283       243
      289       284       270       280       337       428       372       338
      320       263       280       238       286       245       204       249
      253       249       251       253       238       310       289       297
      302       383       383       436       443       471       459       402
      326       290       287       279       263       276       264       247
      252       255       238       242       270       255       244       256
      224       245       227       228       246       245       256       236
      271       235       253       243       239       225       223       254
      218       242       246       227       227       250       239       214
      249       218       225       254       217       219       207       226
      256       248       251       235       248       258       224       261
      250       253       256       250       236       211       216       227
      244       226       235       231       238       217       227       236
      231       244       247       248       225       223       227       231
      243       231       252       265       243       255       255       226
      282       275       245       244       280       236       256       230
      263       285       249       286       276       244       302       287
      279       278       279       311       314       322       343       340
      380       381       394       418       480       558       727       908
     1122      1366      1712      1864      2077      2022      1640      1204
      855       671       545       506       460       436       378       387
      359       317       308       293       290       301       301       302
      277       282       280       285       275       304       269       262
      343       327       353       363       393       454       521       524
      653       873      1025      1343      1948      3023      4292      6181
     8742     10991     11928     10592      7835      4946      2983      1634
     1205      1264      1478      1774      2329      2748      2945      2900
     2442      1778      1179       707       493       445       366       368
      371       322       312       288       303       286       267       278
      251       250       285       311       255       280       264       281
      268       258       270       278       266       277       269       273
      313       281       286       306       300       296       292       260
      288       255       251       272       255       267       292       313
      309       317       331       332       414       464       504       578
      580       656       723       758       660       669       686       715
      762       786       891      1127      1533      2057      3038      4514
     6462      9228     11909     12818     12066      9493      6732      4259
     2520      1511      1098       919       809       807       777       829
      983      1243      1571      2004      2519      2810      2539      2072
     1401      1038       685       534       420       438       389       372
      351       352       337       294       307       313       279       291
      309       312       303       265       274       274       252       271
      271       277       280       294       294       288       296       303
      266       295       299       280       253       282       316       268
      261       249       252       252       252       239       283       266
      295       265       227       261       283       259       279       268
      270       298       327       297       354       324       327       352
      404       410       533       673       857      1231      1781      2419
     3159      3645      3729      3156      2342      1731      1177       757
      584       545       466       437       406       394       353       345
      330       323       318       317       303       273       280       273
      271       283       244       272       276       297       339       319
      305       346       386       375       383       480       454       586
      564       563       591       547       484       421       436       371
      327       355       330       283       314       297       276       277
      270       280       273       286       277       286       270       266
      268       292       278       264       311       314       286       289
      328       270       260       305       289       286       318       335
      297       342       316       329       354       337       313       300
      286       302       351       340       345       362       379       483
      509       613       809      1176      1595      2104      2483      2556
     2331      1789      1359       991       679       510       410       366
      350       360       336       342       336       356       359       316
      324       338       316       310       307       288       304       282
      281       275       274       321       305       307       304       307
      291       332       362       267       329       313       302       313
      287       301       286       298       326       270       269       283
      314       312       264       319       304       318       320       325
      300       308       326       325       340       388       416       471
      489       560       623       691       763       825       836       793
      769       690       623       550       494       441       447       466
      438       433       410       423       424       474       429       480
      509       529       548       595       723       629       677       581
      576       512       476       479       423       454       401       393
      418       428       474       433       474       477       490       535
      466       492       446       431       431       396       393       391
      399       366       366       396       340       404       381       406
      379       395       393       446       418       495       465       520
      556       625       725       810       893      1044      1241      1599
     1980      2425      3088      3973      5374      6830      8808     11720
    15180     19232     21215     19190     15579     12411     10011      6883
     3881      2418      1845      1490      1210      1026       981       795
      737       662       612       692       622       606       650       666
      648       666       667       633       624       583       564       499
      523       507       533       564       591       586       593       660
      710       800       789       930      1100      1252      1511      1949
     2633      3771      5424      7444      9467     11424     13167     14658
    13270     10300      8260      7051      5155      3031      2268      1819
     1647      1548      1669      1764      1818      2009      2393      3235
     4367      6458      9568     13857     18223     19904     17709     15016
    14244     14449     13711     13444     13418     11953      9410      7784
     6654      4768      2908      2020      1505      1351      1292      1262
     1333      1353      1504      1566      1500      1568      1490      1381
     1289      1175      1031       917       827       787       793       710
      672       680       599       615       645       540       554       518
      469       494       462       516       556       582       635       600
      655       601       698       670       706       790       839       937
     1002      1075      1010       987       972       946       802       730
      727       654       580       592       608       545       469       405
      453       402       381       381       399       420       427       468
      534       510       462       485       423       426       446       381
      395       384       416       468       526       661       724       711
      628       686       644       619       564       577       626       649
      717       796       879       893       955      1017       971       920
      882       900       834       797       778       791       822       783
      828       790       768       742       682       583       541       471
      433       416       395       359       392       347       335       305
      300       307       284       260       272       304       272       274
      279       312       257       264       291       289       313       298
      299       308       317       334       341       347       368       411
      427       481       558       615       635       625       654       734
      857       921      1048      1233      1379      1477      1495      1500
     1362      1235      1089       962       872       750       669       559
      514       442       413       346       368       351       335       325
      313       310       300       331       321       354       307       314
      273       335       333       338       379       383       382       405
      417       417       425       394       387       439       398       359
      346       384       414       364       365       392       370       383
      406       416       428       471       521       589       658       780
      813       900      1009      1099      1161      1087      1002      1022
      991       965       954       905       927       947       847       859
      909       899       767       693       674       546       507       458
      426       408       370       308       327       281       326       313
      315       267       302       269       268       301       269       238
      287       313       281       273       301       308       280       281
      333       315       380       362       403       394       412       466
      426       453       440       410       385       386       350       303
      333       324       293       297       280       296       302       311
      320       296       317       352       360       341       346       343
      362       365       389       376       307       331       327       311
      337       329       313       322       337       315       322       310
      337       346       342       389       402       489       570       689
      770       805       686       588       608       583       561       481
      425       411       400       389       427       395       401       414
      466       495       523       612       663       845      1117      1246
     1246      1214      1067      1011      1037       956       812       727
      673       679       681       709       708       797       895       929
     1038      1198      1259      1386      1397      1402      1282      1197
     1115      1050       884       758       671       592       571       491
      459       453       444       459       471       456       544       584
      644       607       632       645       677       685       720       622
      619       611       614       564       517       503       410       484
      472       419       469       555       583       555       677       660
      702       786       767       794       826       901       881       837
      899       825       868       955      1150      1269      1248      1043
      892       805       814       801       684       573       481       444
      436       517       531       631       845      1136      1418      1357
     1229      1107      1083      1224      1385      1448      1551      1529
     1475      1219      1046      1055       996       853       687       583
      485       451       453       445       437       457       482       507
      556       547       523       524       485       483       485       459
      455       448       476       496       536       559       677       897
     1270      1702      2095      2301      2016      1739      1442      1582
     1555      1290      1040       946       973      1164      1575      2175
     2880      3251      2820      2198      1867      1868      1903      1558
     1087       744       580       556       501       504       451       424
      428       368       401       404       372       364       368       347
      374       388       375       379       404       465       536       546
      640       796       960      1110      1083       949       888       940
     1120      1289      1666      2349      3144      3711      3536      2763
     2178      2111      2199      2029      1467      1023       727       571
      525       446       396       412       389       384       365       349
      344       350       332       351       349       346       343       321
      320       337       321       329       320       322       315       327
      348       335       299       302       306       321       325       326
      343       343       367       385       402       431       478       549
      595       751       954      1266      1770      2066      2117      1672
     1602      1958      2501      3026      3361      3292      2678      2096
     1809      1836      1939      1680      1229       967       813       755
      660       675       587       586       627       682       725       928
     1130      1415      1487      1348      1103      1019       968       989
      946       797       629       547       518       485       518       528
      504       517       625       796      1042      1414      2055      2496
     2741      2294      1785      1546      1589      1530      1494      1076
      818       617       526       492       514       569       606       599
      612       537       489       448       446       474       473       408
      315       338       318       314       332       313       318       345
      319       335       308       327       329       338       372       361
      351       352       338       342       334       350       357       327
      372       375       380       371       404       427       412       495
      516       579       704       939      1254      1399      1419      1231
     1041       972      1090      1174      1020       866       706       572
      548       541       514       488       466       483       465       481
      498       579       569       598       641       691       863       990
     1310      1721      2532      3370      3798      3711      3280      2299
     2156      2263      2302      2028      1522      1037       733       669
      563       532       505       444       474       488       492       519
      512       511       623       714       784       769       690       603
      584       634       619       630       605       481       452       458
      448       430       431       405       404       399       406       369
      339       357       388       360       371       386       362       393
      444       431       398       466       411       453       475       474
      440       431       462       476       434       387       401       390
      397       374       366       354       410       352       381       394
      398       397       455       481       510       628       749       990
     1237      1612      1703      1527      1190      1095      1115      1178
     1173      1048       796       678       584       508       553       519
      526       503       514       510       520       500       491       434
      443       506       454       399       375       366       403       349
      353       363       352       347       333       366       318       337
      319       351       353       344       354       364       362       389
      354       356       383       386       366       358       361       353
      394       336       378       394       330       305       345       362
      337       334       317       337       302       338       352       356
      350       416       429       388       382       395       436       451
      484       457       474       483       518       586       651       719
      793       749       781       775       742       703       757       712
      694       655       693       701       751       741       644       606
      576       584       614       581       602       539       564       600
      593       604       594       586       551       556       562       602
      664       694       694       663       661       696       771       823
      841       795       728       797       881       980      1089      1171
     1202      1290      1466      1601      1774      2017      2256      2388
     2705      2631      2420      2303      2188      2042      1947      1964
     1815      1506      1383      1106       987       935       813       745
      665       636       625       612       530       581       560       515
      542       582       517       511       481       485       454       472
      457       432       393       397       393       367       339       336
      344       309       353       312       355       336       346       320
      386       425       427       442       501       593       729       693
      645       606       467       530       566       591       650       560
      503       450       481       456       467       445       458       490
      525       542       552       543       499       429       372       422
      425       419       451       404       352       319       371       382
      375       378       407       381       400       426       436       414
      381       440       447       433       489       382       429       454
      480       552       634       721       972      1203      1350      1349
     1183       910       798       890       955      1075       960       887
      917       989      1233      1523      1548      1425      1045       914
      881       872       990       941       812       671       551       423
      417       362       305       333       344       330       334       331
      332       310       334       344       340       303       304       299
      292       329       309       320       306       333       335       364
      388       452       504       626       670       591       558       476
      452       431       473       494       438       385       366       349
      295       303       345       331       316       378       310       333
      330       356       365       381       383       484       451       380
      380       347       320       344       406       381       315       299
      302       313       291       276       304       292       301       287
      297       326       275       274       276       321       289       310
      267       297       281       316       325       281       314       340
      324       347       365       368       390       375       429       438
      486       501       537       542       612       617       584       601
      570       551       568       503       506       538       478       468
      419       409       416       398       423       448       385       435
      451       502       490       496       514       513       504       489
      529       499       496       484       477       511       464       439
      410       389       413       399       424       444       430       418
      418       382       430       346       369       395       388       381
      391       416       421       504       476       469       435       470
      444       457       467       472       480       451       446       443
      398       531       553       640       659       678       633       551
      465       469       509       547       531       492       468       448
      479       484       482       462       467       474       439       439
      445       420       418       418       381       370       372       377
      301       331       314       311       311       333       289       307
      313       283       310       303       374       398       400       409
      438       412       424       387       332       349       387       410
      369       370       370       366       335       342       339       381
      362       363       378       338       346       377       371       411
      382       415       425       451       511       534       507       585
      591       730       762      1038      1347      1650      2282      2988
     3028      2753      2144      1678      1631      1894      2117      2391
     2404      2269      2023      1822      1737      1757      1658      1641
     1796      1872      2224      2745      3448      4125      4747      5062
     4647      3886      3199      2760      2587      2666      2889      2695
     2351      1894      1459      1101       834       688       618       538
      556       508       476       482       466       432       452       433
      431       395       406       421       428       438       457       524
      535       542       645       658       681       599       618       571
      579       582       581       585       552       528       508       502
      466       463       459       406       417       399       377       408
      360       401       366       313       362       356       369       315
      398       366       406       408       434       433       457       464
      483       450       488       505       545       571       659       807
      974      1184      1797      2296      3001      3458      3256      2879
     2725      2772      2771      2761      2711      2745      2445      2193
     1789      1628      1365      1180       981       828       712       677
      529       470       451       439       367       370       357       337
      366       393       384       432       429       418       390       375
      353       348       377       377       436       423       408       430
      479       540       683       801       843       711       512       478
      460       472       508       526       559       523       435       381
      333       352       317       291       331       347       327       360
      421       361       396       378       370       387       342       341
      360       390       381       395       418       419       415       366
      323       383       338       342       343       336       358       359
      408       450       449       562       579       605       475       460
      397       365       446       478       423       442       380       327
      308       290       287       287       270       303       286       264
      272       263       265       289       288       370       360       361
      340       317       307       312       280       294       357       338
      313       300       302       280       288       271       286       253
      290       234       263       266       285       270       273       271
      285       227       294       274       299       270       331       392
      333       308       336       319       305       350       347       375
      386       373       370       398       400       366       374       380
      394       396       398       354       305       315       315       349
      351       333       335       295       327       305       357       354
      332       347       348       327       363       297       300       325
      320       328       312       307       314       278       306       304
      301       298       289       313       290       279       287       267
      248       283       287       253       257       278       276       294
      298       264       293       273       296       326       275       300
      326       373       402       431       444       401       376       359
      314       341       352       323       375       346       331       334
      315       291       303       257       282       291       264       317
      279       275       320       319       282       258       269       330
      329       312       323       341       362       369       377       396
      369       371       365       325       324       334       330       344
      310       321       327       324       279       276       301       294
      271       290       300       317       285       286       270       278
      302       268       324       297       290       317       282       331
      338       376       352       332       329       338       352       336
      374       360       358       371       361       402       368       316
      341       327       376       333       321       333       324       324
      320       284       297       303       314       324       347       416
      367       297       299       296       246       299       297       276
      379       361       343       373       382       358       337       359
      326       362       328       343       313       350       322       332
      336       332       297       308       282       308       287       275
      287       277       268       257       298       291       259       269
      266       326       335       347       364       334       333       284
      260       263       264       276       298       343       309       273
      295       269       254       277       298       269       319       297
      327       318       335       303       310       290       280       300
      307       286       313       298       303       307       289       308
      309       322       304       349       320       317       359       340
      352       349       375       368       380       323       332       373
      350       351       403       398       362       356       362       380
      367       351       363       406       403       385       362       363
      381       359       382       392       389       379       394       355
      390       366       354       357       428       400       447       450
      452       489       498       485       541       545       545       513
      496       504       510       467       457       452       441       438
      464       440       393       418       340       322       326       340
      329       309       335       318       278       281       300       288
      273       267       244       252       272       287       243       248
      244       289       271       275       253       256       280       280
      269       251       256       267       244       280       271       253
      291       295       303       310       353       334       375       373
      364       323       312       340       338       305       304       308
      313       318       348       309       284       315       278       280
      301       283       302       277       263       283       265       286
      331       319       342       392       348       306       355       383
      375       402       345       395       443       439       387       390
      406       390       405       389       388       381       352       359
      357       368       323       335       360       345       274       337
      315       266       308       340       324       269       288       260
      267       322       323       281       280       319       305       290
      288       296       307       321       335       292       340       290
      276       295       287       293       314       337       310       319
      349       332       343       329       335       383       387       382
      429       393       409       448       456       497       523       546
      589       684       675       667       724       697       671       693
      729       731       699       746       638       622       608       531
      541       591       532       494       488       446       413       448
      368       373       318       312       340       318       326       327
      305       298       313       293       304       279       312       273
      334       333       318       302       319       292       308       310
      335       350       341       384       357       357       373       335
      297       305       318       316       340       326       355       354
      316       304       314       297       311       297       301       324
      256       290       289       303       315       351       307       284
      287       265       287       281       322       376       373       437
      405       399       375       324       308       297       321       315
      370       349       363       372       362       326       314       301
      294       288       303       302       299       314       304       304
      290       291       325       328       318       343       272       301
      229       290       279       289       302       322       267       275
      269       268       272       276       282       272       265       270
      256       263       264       250       267       313       285       286
      276       310       305       272       255       260       231       296
      328       292       262       298       331       275       306       300
      280       332       350       331       383       349       391       362
      344       388       347       348       359       364       325       335
      333       369       340       347       291       328       317       310
      295       307       293       296       259       320       296       327
      283       320       301       290       277       278       263       294
      294       308       283       303       300       349       362       300
      307       310       309       284       316       296       307       296
      357       332       314       315       334       306       300       312
      299       322       322       305       292       336       335       296
      375       352       364       387       421       446       406       474
      503       476       496       460       450       447       472       448
      395       454       492       430       460       437       446       430
      401       405       387       348       427       349       368       356
      357       376       368       365       349       362       357       403
      401       464       596       852      1204      1402      1117       722
      565       473       474       486       503       531       659       851
      927       817       623       472       480       466       455       425
      435       440       419       413       399       379       386       328
      406       344       337       362       349       351       339       342
      360       314       364       326       337       339       324       325
      347       336       352       329       347       335       347       358
      331       357       358       389       366       405       411       395
      427       408       426       448       421       464       492       488
      502       518       532       544       575       555       582       626
      621       618       651       601       563       581       536       548
      577       557       549       582       520       452       469       430
      435       458       406       394       431       409       397       372
      377       336       350       378       351       367       358       403
      375       415       389       409       423       376       387       409
      385       418       412       432       426       424       426       408
      379       366       355       352       386       365       363       386
      382       374       355       347       353       363       345       338
      336       345       346       311       333       344       313       359
      323       352       307       349       334       342       333       340
      385       343       329       371       321       309       329       314
      347       339       379       384       417       375       360       320
      340       300       298       286       323       283       319       315
      323       293       309       283       249       271       271       255
      312       298       289       324       297       269       286       291
      255       265       260       252       301       316       321       330
      329       309       300       322       308       322       285       290
      290       291       314       291       297       308       309       315
      297       275       291       268       317       310       296       308
      314       313       284       287       292       279       277       271
      294       305       333       374       333       299       321       299
      274       272       299       258       253       289       274       295
      330       266       301       258       311       282       269       278
      298       266       291       282       273       243       274       305
      290       281       283       300       327       340       301       303
      244       263       282       232       285       264       272       268
      280       266       293       261       271       260       250       285
      295       237       250       265       250       260       247       257
      228       229       266       250       246       246       244       250
      266       259       277       298       278       273       243       264
      277       290       263       282       272       303       315       299
      279       278       259       269       283       272       270       271
      287       288       292       295       300       271       278       272
      292       276       284       290       267       300       324       336
      380       347       315       274       288       299       285       295
      294       299       317       287       329       345       346       403
      375       364       327       331       320       313       292       315
      290       303       320       324       305       316       271       271
      271       290       254       245       267       265       253       241
      246       263       261       235       226       260       242       247
      218       228       257       214       247       251       253       276
      238       237       230       236       245       259       240       219
      210       256       249       239       236       245       248       255
      260       258       231       244       244       272       257       280
      249       267       290       269       309       277       270       274
      268       278       251       262       259       250       263       285
      267       255       274       263       283       278       289       281
      319       353       367       392       426       397       382       357
      318       315       304       289       315       298       336       331
      348       373       380       363       339       373       388       424
      459       418       427       402       379       312       310       267
      269       304       308       331       364       337       383       405
      388       368       342       320       280       313       284       261
      253       284       270       276       287       270       267       263
      273       283       254       271       258       248       277       273
      248       280       257       302       263       271       265       267
      297       285       314       323       392       414       396       347
      321       292       306       300       288       297       299       264
      308       317       336       331       349       338       327       324
      312       303       290       326       314       340       312       325
      312       327       337       307       302       311       298       348
      290       330       304       305       267       287       279       267
      286       265       279       280       262       256       266       291
      234       275       221       248       261       245       261       224
      241       212       246       218       279       261       231       265
      247       240       248       212       259       255       260       223
      273       267       267       244       273       253       249       247
      247       257       252       257       237       250       227       231
      218       220       251       223       239       276       250       239
      237       227       286       251       250       241       247       213
      246       224       241       261       237       219       225       235
      222       264       247       240       215       232       269       249
      230       248       261       215       237       263       238       263
      250       272       258       321       310       296       275       246
      242       277       277       266       220       261       233       229
      268       279       293       282       310       239       260       229
      293       264       283       250       258       262       220       284
      221       236       233       239       231       211       221       255
      236       229       242       241       263       259       249       252
      223       281       282       266       272       251       270       292
      314       307       316       323       269       299       321       288
      288       266       294       284       274       314       310       297
      334       328       320       334       391       378       414       412
      442       446       411       380       376       340       330       316
      317       360       312       350       336       323       322       368
      378       330       323       293       265       268       282       259
      289       256       279       261       272       253       254       280
      242       237       264       213       243       277       216       242
      262       249       255       278       267       278       256       249
      248       256       225       232       241       247       231       272
      223       258       242       236       246       228       217       242
      221       264       254       240       244       231       246       240
      235       228       243       228       238       224       219       211
      222       245       230       208       242       226       226       221
      224       208       230       247       215       206       218       218
      242       231       254       260       255       237       234       230
      248       196       230       220       236       245       235       224
      223       233       230       207       247       236       229       223
      235       232       233       234       235       223       240       242
      250       241       237       221       211       246       250       240
      242       234       228       236       237       215       258       251
      223       219       239       225       227       231       282       245
      259       272       242       280       289       316       303       356
      359       313       285       281       271       283       280       277
      262       315       281       304       327       357       357       361
      391       401       415       439       366       387       334       291
      281       299       275       273       292       300       359       338
      336       329       355       330       338       337       320       375
      360       335       375       349       355       341       325       303
      280       295       270       283       257       291       297       285
      289       293       257       280       307       222       271       256
      252       237       238       236       247       209       255       218
      255       235       228       234       210       235       245       231
      231       224       234       231       260       256       215       225
      214       217       209       223       252       250       252       236
      217       242       244       246       224       220       247       210
      213       210       221       254       212       252       215       237
      239       218       257       251       270       245       280       254
      255       229       242       236       240       247       213       221
      261       249       284       263       244       265       255       252
      276       268       265       254       269       288       294       271
      298       303       284       329       336       363       334       311
      328       307       336       341       346       363       329       348
      387       338       366       360       323       332       350       323
      322       303       318       304       330       318       308       328
      307       280       284       285       259       285       276       241
      278       248       256       251       258       243       253       215
      238       225       270       264       229       221       242       234
      230       197       203       264       204       215       208       230
      194       233       212       229       204       221       218       224
      234       257       211       237       212       199       224       225
      205       227       228       216       248       209       217       208
      224       243       206       234       243       251       218       191
      204       241       249       218       217       223       233       245
      237       225       225       212       226       225       204       179
      244       215       216       223       219       237       243       230
      241       235       253       239       204       199       204       244
      218       242       253       245       232       271       238       229
      250       266       266       271       257       250       230       202
      223       201       235       252       239       250       266       242
      269       216       227       257       242       264       251       239
      238       226       225       226       219       219       228       216
      234       211       220       232       214       244       219       229
      223       231       250       254       238       243       246       269
      274       257       297       279       264       290       285       297
      299       284       263       278       257       256       246       244
      273       262       239       279       224       291       264       263
      273       242       237       253       242       225       222       250
      216       208       242       248       222       201       230       233
      234       231       206       221       243       212       223       206
      225       236       242       229       222       232       228       216
      208       227       241       234       233       228       272       240
      230       252       206       246       214       251       251       256
      269       261       219       263       239       257       260       261
      254       251       231       234       247       239       249       244
      260       260       259       224       223       220       231       261
      257       256       251       252       222       269       238       229
      225       223       251       225       228       239       243       221
      235       268       216       212       229       247       226       215
      234       236       240       265       246       252       246       243
      260       249       259       246       269       255       264       266
      232       255       239       257       273       234       268       244
      267       237       246       245       270       279       269       240
      251       275       265       261       275       255       261       260
      265       256       260       249       230       253       251       248
      271       217       231       228       235       214       263       252
      264       250       249       280       240       253       260       249
      244       238       245       245       251       230       263       261
      255       273       250       236       246       277       267       256
      232       263       282       245       278       287       237       230
      247       261       251       258       249       249       276       268
      254       256       250       244       252       265       257       270
      285       248       254       233       240       209       204       224
      243       228       236       251       240       249       226       246
      260       244       226       240       241       220       231       250
      248       246       248       268       248       243       252       251
      225       238       222       253       240       252       240       255
      221       214       233       234       260       246       257       245
      241       214       259       267       269       242       234       262
      267       243       237       274       293       247       257       239
      261       236       272       223       220       262       249       227
      236       288       252       216       243       230       262       253
      253       254       241       241       220       238       219       234
      242       278       249       263       231       241       258       269
      246       238       256       249       264       275       248       259
      284       310       289       293       279       325       299       286
      294       263       328       304       292       283       317       318
      292       311       266       290       300       257       269       275
      319       309       291       287       298       275       304       289
      307       306       312       309       301       293       282       281
      280       290       272       267       286       288       277       276
      310       268       288       301       264       297       309       304
      308       337       300       319       277       337       331       366
      328       331       320       295       288       288       284       275
      254       290       259       318       271       251       285       262
      284       265       285       277       303       286       253       251
      258       255       233       250       241       238       250       243
      248       255       219       225       214       231       224       236
      250       235       247       266       221       255       240       254
      253       241       265       238       279       256       283       239
      231       242       266       240       261       236       270       249
      276       272       276       289       266       292       250       260
      243       260       280       220       245       244       259       259
      258       284       256       256       275       258       280       280
      269       281       239       282       261       277       255       253
      285       264       255       290       247       279       278       266
      295       291       321       335       302       308       316       258
      309       321       299       338       313       327       336       333
      335       348       346       337       337       343       365       334
      337       343       340       353       361       353       324       318
      359       347       325       341       359       318       307       295
      283       327       314       314       305       292       291       316
      282       331       300       290       310       291       259       293
      304       307       289       289       293       267       280       278
      255       236       233       249       273       229       237       244
      236       258       277       248       245       246       256       224
      236       260       274       228       258       245       252       225
      242       262       249       246       252       249       293       268
      271       258       252       261       244       273       235       240
      248       271       248       257       261       242       245       260
      278       277       244       244       281       278       258       261
      281       248       273       239       249       271       271       243
      279       248       235       285       264       267       282       279
      259       278       271       275       309       291       306       291
      279       273       290       277       261       295       288       276
      259       251       281       296       257       276       287       269
      265       313       308       287       302       282       252       293
      281       274       260       277       283       314       274       288
      268       291       273       307       313       315       293       301
      288       298       283       306       286       277       279       300
      303       310       311       345       300       323       313       329
      342       332       315       287       274       277       277       276
      273       308       303       278       313       309       314       285
      258       305       280       314       286       329       315       288
      345       332       296       334       334       329       309       325
      328       358       310       316       299       292       284       288
      297       298       309       276       288       324       315       305
      313       308       312       326       301       317       313       304
      279       319       301       283       294       293       322       300
      312       319       359       372       354       331       356       328
      348       294       316       282       308       313       308       333
      321       296       339       324       301       275       288       295
      299       322       305       315       303       269       267       305
      281       294       291       273       270       297       305       281
      305       299       265       260       264       277       291       296
      287       273       260       268       301       265       278       285
      283       254       252       288       258       275       252       276
      256       256       265       254       262       260       261       253
      269       285       293       268       272       269       282       279
      285       288       293       286       299       293       311       342
      312       303       331       330       362       359       346       354
      327       364       369       365       388       364       366       375
      378       370       371       368       377       334       347       330
      384       387       411       351       348       385       371       398
      385       395       408       407       408       441       488       455
      435       434       432       405       384       388       417       403
      412       372       369       350       365       372       321       349
      334       357       345       348       330       378       386       370
      343       402       344       330       351       320       374       354
      338       355       337       360       329       284       302       336
      303       312       281       320       313       301       290       294
      287       282       242       279       282       282       284       299
      270       285       305       287       262       266       279       270
      276       275       293       251       273       273       286       267
      304       275       270       280       268       253       234       243
      253       246       239       241       263       274       259       276
      262       282       248       262       258       240       232       280
      254       266       243       244       274       252       256       277
      273       253       260       256       272       286       256       255
      245       238       269       264       251       237       238       254
      249       257       234       256       286       265       252       243
      220       247       289       237       281       235       239       268
      266       266       265       259       246       253       270       264
      254       256       265       275       277       262       244       235
      251       263       246       253       260       279       244       260
      265       267       273       271       270       262       272       256
      241       260       297       256       244       256       264       271
      266       258       269       269       263       294       273       275
      265       267       266       293       228       291       264       282
      283       272       257       274       262       245       250       270
      241       273       273       270       276       255       259       265
      228       246       252       267       231       248       232       273
      282       247       243       242       250       218       245       235
      295       237       250       282       254       277       222       265
      264       285       284       276       271       262       248       286
      253       252       291       253       281       248       234       250
      274       266       259       218       276       276       248       242
      263       245       246       263       241       247       253       262
      268       261       264       259       255       289       272       260
      215       274       252       259       263       237       245       263
      253       287       245       270       260       243       227       258
      257       272       251       243       258       260       258       248
      275       269       265       247       281       253       248       279
      280       318       222       257       264       259       255       273
      295       250       293       265       232       237       265       254
      247       283       276       227       259       217       246       279
      249       238       238       258       266       259       255       255
      253       255       248       251       281       276       254       256
      241       291       252       238       221       212       256       260
      260       229       266       231       251       227       274       252
      240       273       255       263       234       278       282       245
      238       269       248       246       263       256       265       307
      286       287       287       282       257       297       256       267
      297       289       292       287       252       292       285       285
      297       299       311       287       289       275       289       299
      255       277       257       293       305       268       275       276
      246       307       272       265       276       302       290       278
      290       243       271       280       273       282       270       252
      281       286       300       259       309       294       281       259
      259       288       249       258       256       259       264       258
      271       260       283       225       272       258       277       278
      283       270       301       309       258       271       191       251
      250       266       230       256       246       262       260       281
      281       269       263       273       279       270       255       277
      268       280       273       277       288       300       280       299
      258       306       268       270       299       256       269       251
      270       272       256       282       258       272       273       294
      282       280       275       256       270       276       286       254
      282       289       263       268       280       271       258       268
      238       275       255       274       270       270       278       292
      248       287       243       288       269       266       269
